time,iqs,ids,torque,rpm,vqs,vds
0.0,9.844632,-1.7799907,-0.083050065,0.9904789,179.62924,0.0
0.001,16.367643,-5.8284883,-0.32610732,3.9925852,179.62924,0.0
0.002,19.885876,-10.623903,-1.1007808,5.68434,179.62924,0.0
0.003,21.054949,-15.034258,-2.8163004,2.6211524,179.62924,0.0
0.004,20.65192,-18.51952,-5.4303384,-2.1536493,179.62924,0.0
0.0050000004,19.364426,-20.964188,-8.954649,-8.20869,179.62924,0.0
0.006,17.745623,-22.329288,-12.91215,-15.020524,179.62924,0.0
0.007,16.195635,-22.857521,-16.808859,-19.069288,179.62924,0.0
0.008,14.934541,-22.842432,-19.975996,-33.964066,179.62924,0.0
0.009000001,13.998892,-22.501677,-21.932667,-45.131054,179.62924,0.0
0.010000001,13.434633,-22.034193,-22.251514,-49.880527,179.62924,0.0
0.011000001,13.099959,-21.51303,-20.697107,-56.015846,179.62924,0.0
0.012,12.985127,-21.09001,-17.425423,-64.53074,179.62924,0.0
0.013,12.9927,-20.715956,-12.958433,-75.23889,179.62924,0.0
0.014,13.056253,-20.369116,-7.787908,-89.91254,179.62924,0.0
0.015000001,13.202873,-20.105059,-2.6548784,-82.55173,179.62924,0.0
0.016,13.4178295,-19.84642,1.539204,-98.65543,179.62924,0.0
0.017,13.688063,-19.703573,4.2848473,-84.26027,179.62924,0.0
0.018000001,14.012072,-19.680876,5.104145,-85.4767,179.62924,0.0
0.019000001,14.337984,-19.727398,3.987524,-77.588974,179.62924,0.0
0.020000001,14.617473,-19.878668,1.0230153,-84.81771,179.62924,0.0
0.021000002,14.81008,-20.145113,-3.302704,-78.49765,179.62924,0.0
0.022000002,14.9053545,-20.44846,-8.350314,-81.14177,179.62924,0.0
0.023000002,14.8812275,-20.762882,-13.315482,-90.7282,179.62924,0.0
0.024,14.775727,-21.067158,-17.551506,-103.034256,179.62924,0.0
0.025,14.553342,-21.320543,-20.434479,-107.33798,179.62924,0.0
0.026,14.295761,-21.529663,-21.496857,-113.85375,179.62924,0.0
0.027,13.937512,-21.6049,-20.56525,-126.74626,179.62924,0.0
0.028,13.573087,-21.57837,-17.694479,-144.4922,179.62924,0.0
0.029000001,13.244247,-21.404842,-13.529183,-149.36075,179.62924,0.0
0.030000001,12.9734125,-21.108376,-8.489034,-143.6417,179.62924,0.0
0.031000001,12.829257,-20.718277,-3.4875414,-146.58932,179.62924,0.0
0.032,12.897029,-20.283863,0.6884304,-150.65518,179.62924,0.0
0.033,13.148372,-19.861893,3.475287,-149.32127,179.62924,0.0
0.034,13.515585,-19.591816,4.412954,-153.7615,179.62924,0.0
0.035,14.019999,-19.491486,3.291692,-147.55621,179.62924,0.0
0.036000002,14.487274,-19.599838,0.43102562,-146.46709,179.62924,0.0
0.037,14.88995,-19.860342,-3.6978824,-148.07481,179.62924,0.0
0.038000003,15.167309,-20.299343,-8.572593,-149.49644,179.62924,0.0
0.039,15.263141,-20.790583,-13.316531,-163.08269,179.62924,0.0
0.040000003,15.196716,-21.281515,-17.311064,-165.7822,179.62924,0.0
0.041,14.939818,-21.715563,-19.885534,-184.13959,179.62924,0.0
0.042000003,14.51621,-22.08298,-20.640505,-180.69157,179.62924,0.0
0.043,13.988261,-22.235565,-19.441893,-194.02203,179.62924,0.0
0.044000003,13.4317665,-22.2232,-16.5265,-202.96432,179.62924,0.0
0.045,12.916513,-21.950537,-12.234267,-207.33667,179.62924,0.0
0.046000004,12.541647,-21.503729,-7.40245,-210.81834,179.62924,0.0
0.047000002,12.367738,-20.91663,-2.7799394,-228.75104,179.62924,0.0
0.048,12.470878,-20.298664,0.94287145,-221.44118,179.62924,0.0
0.049000002,12.818894,-19.756994,3.128235,-221.63428,179.62924,0.0
0.05,13.328886,-19.395578,3.4107556,-205.80966,179.62924,0.0
0.051000003,13.996812,-19.281204,1.8732632,-216.42949,179.62924,0.0
0.052,14.6143,-19.422361,-1.3038174,-212.78337,179.62924,0.0
0.053000003,15.167515,-19.8159,-5.5711308,-221.26324,179.62924,0.0
0.054,15.503216,-20.380974,-10.256296,-224.83218,179.62924,0.0
0.055000003,15.590857,-21.059284,-14.51948,-229.7491,179.62924,0.0
0.056,15.448742,-21.723206,-17.756907,-245.23247,179.62924,0.0
0.057000004,15.019556,-22.275202,-19.459513,-245.72112,179.62924,0.0
0.058000002,14.43458,-22.641201,-19.265717,-246.99792,179.62924,0.0
0.059000004,13.746474,-22.762405,-17.350714,-262.69135,179.62924,0.0
0.060000002,13.03254,-22.605656,-13.894089,-271.07047,179.62924,0.0
0.061000004,12.444189,-22.17954,-9.566131,-274.75775,179.62924,0.0
0.062000003,12.087662,-21.550095,-4.988857,-284.98495,179.62924,0.0
0.063,12.019085,-20.774137,-1.0397506,-283.24817,179.62924,0.0
0.064,12.271849,-20.04993,1.6317407,-284.84888,179.62924,0.0
0.065000005,12.807146,-19.483986,2.6534224,-278.07202,179.62924,0.0
0.066,13.514894,-19.185997,1.868232,-283.50317,179.62924,0.0
0.067,14.288863,-19.208185,-0.62810385,-286.00165,179.62924,0.0
0.068,15.008413,-19.53,-4.2921004,-282.9563,179.62924,0.0
0.069000006,15.545094,-20.12131,-8.555664,-290.24008,179.62924,0.0
0.07,15.758402,-20.858084,-12.689395,-288.27808,179.62924,0.0
0.071,15.72865,-21.668642,-16.045975,-296.9575,179.62924,0.0
0.072000004,15.359141,-22.362871,-17.994963,-315.25357,179.62924,0.0
0.07300001,14.740717,-22.911493,-18.296024,-319.438,179.62924,0.0
0.074,13.945821,-23.126225,-16.822626,-328.9806,179.62924,0.0
0.075,13.136125,-23.042253,-13.933619,-340.12585,179.62924,0.0
0.076000005,12.417717,-22.64678,-10.041742,-336.40378,179.62924,0.0
0.07700001,11.932192,-21.959618,-5.8174787,-342.91174,179.62924,0.0
0.078,11.77133,-21.136423,-2.086666,-350.79623,179.62924,0.0
0.079,11.950946,-20.284193,0.5428088,-338.6117,179.62924,0.0
0.080000006,12.492923,-19.630205,1.7192047,-334.4779,179.62924,0.0
0.081,13.246408,-19.220785,1.1182963,-338.5045,179.62924,0.0
0.082,14.118989,-19.16158,-0.97367245,-342.1953,179.62924,0.0
0.083000004,14.921144,-19.459974,-4.2760363,-346.71002,179.62924,0.0
0.08400001,15.521396,-20.064602,-8.111232,-337.6516,179.62924,0.0
0.085,15.847263,-20.859455,-11.867522,-350.13135,179.62924,0.0
0.086,15.812814,-21.730328,-14.894119,-356.64053,179.62924,0.0
0.087000005,15.4285965,-22.517263,-16.681908,-368.55374,179.62924,0.0
0.08800001,14.775475,-23.112028,-16.9135,-369.76755,179.62924,0.0
0.089,13.9468775,-23.360897,-15.499011,-376.68237,179.62924,0.0
0.09,13.092328,-23.286833,-12.8176,-388.40088,179.62924,0.0
0.091000006,12.318043,-22.834381,-9.326426,-397.69208,179.62924,0.0
0.09200001,11.812597,-22.100668,-5.537095,-402.37195,179.62924,0.0
0.093,11.654365,-21.251856,-2.2731469,-398.4787,179.62924,0.0
0.094000004,11.891285,-20.374252,-0.064183,-408.87228,179.62924,0.0
0.095000006,12.438398,-19.671568,0.7456683,-403.4478,179.62924,0.0
0.096,13.231156,-19.298944,0.021738976,-392.74835,179.62924,0.0
0.097,14.126411,-19.263243,-2.0917864,-406.58755,179.62924,0.0
0.098000005,14.931804,-19.639412,-5.127836,-401.80295,179.62924,0.0
0.09900001,15.554844,-20.280216,-8.593758,-402.7926,179.62924,0.0
0.1,15.82099,-21.129711,-11.831834,-417.601,179.62924,0.0
0.101,15.727009,-22.006783,-14.229496,-421.2178,179.62924,0.0
0.102000006,15.299492,-22.753021,-15.39723,-433.13644,179.62924,0.0
0.10300001,14.579552,-23.299494,-15.190409,-427.7149,179.62924,0.0
0.104,13.733958,-23.493816,-13.60846,-444.2082,179.62924,0.0
0.105000004,12.867089,-23.296293,-10.931749,-446.8925,179.62924,0.0
0.106000006,12.1483965,-22.764809,-7.7167563,-453.39807,179.62924,0.0
0.10700001,11.73994,-21.981754,-4.5622425,-459.68488,179.62924,0.0
0.108,11.681781,-21.113266,-2.0046995,-449.3271,179.62924,0.0
0.109000005,12.035143,-20.288939,-0.52164024,-455.68793,179.62924,0.0
0.11000001,12.670261,-19.7145,-0.35048765,-465.08218,179.62924,0.0
0.11100001,13.515463,-19.434515,-1.4958174,-463.15848,179.62924,0.0
0.112,14.35779,-19.560368,-3.6572537,-457.72144,179.62924,0.0
0.113000005,15.089016,-20.008165,-6.5426817,-460.99637,179.62924,0.0
0.11400001,15.568549,-20.730324,-9.477678,-465.42743,179.62924,0.0
0.115,15.680076,-21.566206,-12.002573,-475.8484,179.62924,0.0
0.116000004,15.449885,-22.387445,-13.517925,-478.56998,179.62924,0.0
0.117000006,14.891678,-23.051754,-13.975353,-483.66565,179.62924,0.0
0.11800001,14.1208315,-23.426298,-13.138442,-500.6901,179.62924,0.0
0.119,13.274149,-23.419468,-11.249645,-507.84747,179.62924,0.0
0.120000005,12.534879,-23.070002,-8.673635,-507.86954,179.62924,0.0
0.12100001,11.979534,-22.422523,-5.8816004,-507.6052,179.62924,0.0
0.12200001,11.7820425,-21.63069,-3.4601388,-507.84314,179.62924,0.0
0.123,11.950488,-20.810995,-1.8376138,-514.68494,179.62924,0.0
0.124000005,12.424038,-20.14698,-1.2675484,-513.63104,179.62924,0.0
0.125,13.152494,-19.782846,-1.7772691,-512.254,179.62924,0.0
0.126,13.932019,-19.743105,-3.3744957,-515.268,179.62924,0.0
0.127,14.664452,-20.043655,-5.61356,-521.32117,179.62924,0.0
0.128,15.21694,-20.618486,-8.11281,-527.12354,179.62924,0.0
0.12900001,15.4349165,-21.384697,-10.352341,-519.9645,179.62924,0.0
0.13000001,15.341293,-22.169174,-11.871775,-537.8653,179.62924,0.0
0.13100001,14.920615,-22.8254,-12.5367365,-541.6085,179.62924,0.0
0.132,14.263414,-23.245037,-12.07892,-545.8383,179.62924,0.0
0.133,13.510049,-23.350965,-10.68787,-549.5312,179.62924,0.0
0.134,12.783802,-23.113657,-8.670613,-555.177,179.62924,0.0
0.135,12.248711,-22.59471,-6.3950987,-558.9125,179.62924,0.0
0.136,11.964955,-21.914356,-4.3283787,-551.54895,179.62924,0.0
0.13700001,12.03573,-21.166975,-2.8199065,-563.5287,179.62924,0.0
0.13800001,12.4121,-20.552187,-2.1932425,-564.3407,179.62924,0.0
0.13900001,13.0283785,-20.153706,-2.5171673,-568.5914,179.62924,0.0
0.14,13.727329,-20.031012,-3.7019403,-557.0216,179.62924,0.0
0.141,14.406567,-20.263275,-5.4755516,-570.7606,179.62924,0.0
0.142,14.905854,-20.757502,-7.4647493,-577.1787,179.62924,0.0
0.143,15.163068,-21.400543,-9.289683,-571.8528,179.62924,0.0
0.14400001,15.100024,-22.100958,-10.572289,-575.7529,179.62924,0.0
0.14500001,14.777559,-22.693083,-11.140579,-589.6735,179.62924,0.0
0.14600001,14.216688,-23.080227,-10.842025,-585.30054,179.62924,0.0
0.147,13.567772,-23.201157,-9.790076,-583.57715,179.62924,0.0
0.148,12.927308,-23.028263,-8.159975,-603.14343,179.62924,0.0
0.149,12.436935,-22.574917,-6.329921,-601.8257,179.62924,0.0
0.15,12.205806,-21.97465,-4.7215233,-606.0672,179.62924,0.0
0.15100001,12.246511,-21.360395,-3.538336,-606.8081,179.62924,0.0
0.15200001,12.555193,-20.83242,-3.0506394,-604.25977,179.62924,0.0
0.15300001,13.0641165,-20.500223,-3.3424907,-618.6678,179.62924,0.0
0.15400001,13.667553,-20.393633,-4.2548723,-612.9443,179.62924,0.0
0.155,14.235955,-20.579985,-5.7341213,-621.53,179.62924,0.0
0.156,14.673266,-21.003067,-7.2709966,-616.3337,179.62924,0.0
0.157,14.867008,-21.562555,-8.657621,-627.45715,179.62924,0.0
0.158,14.810389,-22.123964,-9.5985565,-622.80756,179.62924,0.0
0.15900001,14.499645,-22.639313,-9.937552,-633.698,179.62924,0.0
0.16000001,14.037915,-22.922182,-9.576615,-636.7095,179.62924,0.0
0.16100001,13.497709,-23.016949,-8.71078,-647.47095,179.62924,0.0
0.162,12.958016,-22.827353,-7.442568,-655.53656,179.62924,0.0
0.163,12.600843,-22.433847,-6.0560613,-651.4282,179.62924,0.0
0.164,12.399694,-21.955086,-4.827003,-650.8154,179.62924,0.0
0.165,12.477058,-21.429148,-4.0765715,-652.7606,179.62924,0.0
0.16600001,12.789261,-21.022367,-3.80701,-662.33936,179.62924,0.0
0.16700001,13.226602,-20.77659,-4.164484,-659.14514,179.62924,0.0
0.16800001,13.703536,-20.74754,-4.962186,-668.77094,179.62924,0.0
0.16900001,14.140267,-20.96614,-6.101693,-666.675,179.62924,0.0
0.17,14.467612,-21.323368,-7.2765265,-672.886,179.62924,0.0
0.171,14.591504,-21.79407,-8.250722,-673.6826,179.62924,0.0
0.172,14.478522,-22.250435,-8.847468,-678.3997,179.62924,0.0
0.17300001,14.180817,-22.60389,-8.968028,-678.53723,179.62924,0.0
0.17400001,13.794971,-22.797764,-8.538696,-685.32385,179.62924,0.0
0.17500001,13.3657255,-22.811249,-7.729184,-694.8759,179.62924,0.0
0.17600001,12.960506,-22.62504,-6.730142,-693.5008,179.62924,0.0
0.177,12.704969,-22.267344,-5.7310905,-695.27185,179.62924,0.0
0.178,12.645192,-21.85689,-4.945335,-702.7875,179.62924,0.0
0.179,12.760133,-21.47314,-4.4965,-701.9209,179.62924,0.0
0.18,13.041174,-21.197435,-4.4811077,-706.8142,179.62924,0.0
0.18100001,13.413464,-21.056215,-4.8987,-711.3273,179.62924,0.0
0.18200001,13.796171,-21.128609,-5.6125517,-708.25085,179.62924,0.0
0.18300001,14.094813,-21.345848,-6.4572234,-716.58075,179.62924,0.0
0.18400002,14.272594,-21.667704,-7.3055687,-725.3519,179.62924,0.0
0.185,14.294774,-22.035286,-7.857683,-724.9437,179.62924,0.0
0.186,14.16427,-22.347645,-8.133911,-720.1757,179.62924,0.0
0.187,13.861801,-22.597708,-7.9916286,-738.7236,179.62924,0.0
0.18800001,13.532587,-22.669851,-7.5840173,-724.15027,179.62924,0.0
0.18900001,13.216848,-22.595476,-6.88693,-738.3676,179.62924,0.0
0.19000001,12.974296,-22.384968,-6.142192,-741.47943,179.62924,0.0
0.19100001,12.842566,-22.096954,-5.536284,-741.53204,179.62924,0.0
0.192,12.854549,-21.808655,-5.0727077,-746.87115,179.62924,0.0
0.193,12.999625,-21.535114,-4.9273496,-749.33167,179.62924,0.0
0.194,13.266894,-21.390913,-5.0768185,-751.4387,179.62924,0.0
0.19500001,13.553194,-21.357029,-5.519388,-763.796,179.62924,0.0
0.19600001,13.827275,-21.477598,-6.0983715,-754.36566,179.62924,0.0
0.19700001,13.990612,-21.685316,-6.700914,-762.49524,179.62924,0.0
0.19800001,14.03856,-21.954683,-7.1745086,-758.77045,179.62924,0.0
0.19900002,13.985275,-22.218533,-7.482116,-764.0187,179.62924,0.0
0.2,13.841039,-22.414455,-7.4562635,-779.2498,179.62924,0.0
0.201,13.592364,-22.526005,-7.204937,-772.20917,179.62924,0.0
0.202,13.34558,-22.517282,-6.8162546,-776.3862,179.62924,0.0
0.20300001,13.148814,-22.392502,-6.2703524,-781.75714,179.62924,0.0
0.20400001,13.026295,-22.203213,-5.7898664,-786.6739,179.62924,0.0
0.20500001,12.997366,-21.985498,-5.492387,-791.5939,179.62924,0.0
0.20600002,13.079699,-21.776546,-5.2780085,-800.0427,179.62924,0.0
0.20700002,13.243127,-21.647629,-5.4056187,-802.7654,179.62924,0.0
0.208,13.446028,-21.616716,-5.619734,-796.8534,179.62924,0.0
0.209,13.64475,-21.650911,-5.9313145,-809.6112,179.62924,0.0
0.21000001,13.780015,-21.785025,-6.368918,-804.5988,179.62924,0.0
0.21100001,13.845967,-21.991514,-6.7448354,-805.0564,179.62924,0.0
0.21200001,13.844168,-22.175991,-6.953121,-807.24274,179.62924,0.0
0.21300001,13.732124,-22.324015,-6.971888,-813.06885,179.62924,0.0
0.21400002,13.565177,-22.439901,-6.8334126,-809.1005,179.62924,0.0
0.215,13.388681,-22.435785,-6.581926,-821.7625,179.62924,0.0
0.216,13.230758,-22.357517,-6.2379103,-819.26337,179.62924,0.0
0.21700001,13.157607,-22.226776,-5.918064,-827.411,179.62924,0.0
0.21800001,13.112236,-22.07611,-5.671786,-826.3522,179.62924,0.0
0.21900001,13.156763,-21.942513,-5.5923376,-832.1367,179.62924,0.0
0.22000001,13.273689,-21.846352,-5.5704474,-827.31146,179.62924,0.0
0.22100002,13.407096,-21.813128,-5.7486033,-837.1584,179.62924,0.0
0.22200002,13.526601,-21.834246,-5.966333,-840.2494,179.62924,0.0
0.223,13.6505785,-21.937895,-6.265786,-837.9705,179.62924,0.0
0.224,13.707035,-22.058493,-6.4708333,-846.1827,179.62924,0.0
0.22500001,13.68242,-22.185736,-6.632747,-843.7859,179.62924,0.0
0.22600001,13.608352,-22.294346,-6.6032333,-854.11115,179.62924,0.0
0.22700001,13.511473,-22.344791,-6.583452,-849.5547,179.62924,0.0
0.22800002,13.384774,-22.36722,-6.361879,-859.1783,179.62924,0.0
0.22900002,13.274596,-22.338291,-6.107682,-861.76733,179.62924,0.0
0.23,13.225887,-22.249706,-5.949909,-866.42664,179.62924,0.0
0.231,13.197874,-22.147251,-5.7988486,-866.339,179.62924,0.0
0.23200001,13.237253,-22.05289,-5.7315073,-871.8849,179.62924,0.0
0.23300001,13.295484,-21.989525,-5.7091203,-869.2578,179.62924,0.0
0.23400001,13.385865,-21.963152,-5.835107,-869.80347,179.62924,0.0
0.23500001,13.47829,-21.994816,-5.97262,-890.1531,179.62924,0.0
0.23600002,13.528364,-22.052853,-6.147747,-885.5387,179.62924,0.0
0.23700002,13.572771,-22.137028,-6.283266,-881.2524,179.62924,0.0
0.238,13.562412,-22.237066,-6.3744016,-893.9351,179.62924,0.0
0.23900001,13.504802,-22.290321,-6.355745,-902.43524,179.62924,0.0
0.24000001,13.455546,-22.327309,-6.3103924,-900.9797,179.62924,0.0
0.24100001,13.365751,-22.354235,-6.176318,-898.62616,179.62924,0.0
0.24200001,13.301845,-22.315142,-6.03366,-899.26605,179.62924,0.0
0.24300002,13.258661,-22.259172,-5.9303718,-903.55383,179.62924,0.0
0.24400002,13.267013,-22.186802,-5.814706,-907.63464,179.62924,0.0
0.245,13.292224,-22.135727,-5.759201,-930.9445,179.62924,0.0
0.246,13.314156,-22.11035,-5.805322,-919.92554,179.62924,0.0
0.24700001,13.368512,-22.098373,-5.882476,-913.8729,179.62924,0.0
0.24800001,13.419203,-22.128109,-5.95239,-915.6071,179.62924,0.0
0.24900001,13.457086,-22.166893,-6.0622888,-927.04144,179.62924,0.0
0.25,13.474591,-22.198214,-6.116888,-927.3971,179.62924,0.0
0.25100002,13.477982,-22.294928,-6.1783633,-936.894,179.62924,0.0
0.252,13.424579,-22.312733,-6.17467,-926.4907,179.62924,0.0
0.25300002,13.398226,-22.335596,-6.0788946,-934.907,179.62924,0.0
0.254,13.338899,-22.328384,-6.02409,-943.23083,179.62924,0.0
0.25500003,13.299633,-22.299643,-5.9076385,-946.9671,179.62924,0.0
0.256,13.28157,-22.278732,-5.832997,-942.6264,179.62924,0.0
0.257,13.280277,-22.25826,-5.8380733,-954.91974,179.62924,0.0
0.25800002,13.284643,-22.23608,-5.8174334,-958.45605,179.62924,0.0
0.259,13.300119,-22.208893,-5.8315883,-960.2536,179.62924,0.0
0.26000002,13.362183,-22.194048,-5.882868,-954.6238,179.62924,0.0
0.261,13.378813,-22.23459,-5.902694,-957.0182,179.62924,0.0
0.26200002,13.404072,-22.24792,-6.0052576,-962.6082,179.62924,0.0
0.263,13.409604,-22.294569,-6.047829,-972.0663,179.62924,0.0
0.264,13.382674,-22.318266,-6.042352,-967.5329,179.62924,0.0
0.26500002,13.365512,-22.348545,-6.005091,-972.1714,179.62924,0.0
0.266,13.320844,-22.346134,-5.9669704,-978.1868,179.62924,0.0
0.26700002,13.32209,-22.343437,-5.895446,-970.66174,179.62924,0.0
0.268,13.288748,-22.343306,-5.879577,-984.3443,179.62924,0.0
0.26900002,13.285491,-22.329271,-5.8447804,-981.10406,179.62924,0.0
0.27,13.296187,-22.292833,-5.802361,-990.6837,179.62924,0.0
0.27100003,13.27772,-22.270264,-5.8329,-999.7767,179.62924,0.0
0.272,13.332243,-22.278744,-5.821844,-997.9238,179.62924,0.0
0.273,13.348084,-22.286556,-5.8134503,-995.2849,179.62924,0.0
0.27400002,13.361278,-22.318178,-5.91917,-1006.32904,179.62924,0.0
0.275,13.357336,-22.316957,-5.8644323,-1009.1512,179.62924,0.0
0.27600002,13.344072,-22.345861,-5.9305067,-1004.7881,179.62924,0.0
0.277,13.346901,-22.371933,-5.8977494,-1011.5511,179.62924,0.0
0.27800003,13.320332,-22.370657,-5.8981395,-1020.6483,179.62924,0.0
0.279,13.304657,-22.373444,-5.8415737,-1011.1679,179.62924,0.0
0.28,13.283948,-22.364635,-5.8117523,-1023.88544,179.62924,0.0
0.28100002,13.28719,-22.364922,-5.8037114,-1014.5074,179.62924,0.0
0.282,13.28274,-22.361738,-5.7854557,-1023.8261,179.62924,0.0
0.28300002,13.290807,-22.339443,-5.7323623,-1026.9034,179.62924,0.0
0.284,13.29828,-22.341484,-5.762733,-1028.0576,179.62924,0.0
0.28500003,13.30142,-22.361431,-5.804583,-1032.4828,179.62924,0.0
0.286,13.307466,-22.360575,-5.78822,-1032.4795,179.62924,0.0
0.287,13.318867,-22.390545,-5.824318,-1033.4178,179.62924,0.0
0.28800002,13.311271,-22.372093,-5.8434777,-1039.2192,179.62924,0.0
0.289,13.301091,-22.384577,-5.8090987,-1044.5955,179.62924,0.0
0.29000002,13.310856,-22.397726,-5.783718,-1049.349,179.62924,0.0
0.291,13.2852745,-22.430334,-5.7576823,-1049.1842,179.62924,0.0
0.29200003,13.259723,-22.410324,-5.786356,-1050.57,179.62924,0.0
0.293,13.270407,-22.39841,-5.7751064,-1052.1058,179.62924,0.0
0.294,13.280384,-22.40994,-5.7573695,-1062.5654,179.62924,0.0
0.29500002,13.262079,-22.397139,-5.7423105,-1055.553,179.62924,0.0
0.296,13.277263,-22.401382,-5.746854,-1072.6823,179.62924,0.0
0.29700002,13.279735,-22.396338,-5.728718,-1065.8501,179.62924,0.0
0.298,13.266563,-22.42722,-5.728852,-1071.1519,179.62924,0.0
0.29900002,13.277504,-22.408731,-5.7348127,-1072.8438,179.62924,0.0
0.3,13.285855,-22.428349,-5.7399297,-1071.5991,179.62924,0.0
0.30100003,13.270763,-22.42997,-5.766377,-1078.4882,179.62924,0.0
0.30200002,13.270307,-22.439667,-5.7038116,-1087.4271,179.62924,0.0
0.303,13.257853,-22.452276,-5.713434,-1078.6893,179.62924,0.0
0.30400002,13.264627,-22.46358,-5.7135205,-1086.1818,179.62924,0.0
0.305,13.271444,-22.459913,-5.7555966,-1088.3058,179.62924,0.0
0.30600002,13.252915,-22.462156,-5.695039,-1096.6302,179.62924,0.0
0.307,13.251386,-22.447428,-5.702574,-1093.6486,179.62924,0.0
0.30800003,13.255238,-22.455816,-5.6377654,-1109.5355,179.62924,0.0
